Wavelength (Angstroms), Normalized intensity, Element
5885.0, 9630, 
5885.002, 9620, 
5885.004, 9609, 
5885.006, 9598, 
5885.008, 9587, 
5885.01, 9575, 
5885.012, 9564, 
5885.014, 9552, 
5885.016, 9539, 
5885.018, 9527, 
5885.02, 9514, 
5885.022, 9501, 
5885.024, 9489, 
5885.026, 9476, 
5885.028, 9464, 
5885.03, 9451, 
5885.032, 9439, 
5885.034, 9427, 
5885.036, 9416, 
5885.038, 9404, 
5885.04, 9394, 
5885.042, 9384, 
5885.044, 9376, 
5885.046, 9369, 
5885.048, 9365, 
5885.05, 9362, 
5885.052, 9359, 
5885.054, 9357, 
5885.056, 9357, 
5885.058, 9359, 
5885.06, 9361, 
5885.062, 9365, 
5885.064, 9369, 
5885.066, 9375, 
5885.068, 9382, 
5885.07, 9390, 
5885.072, 9398, 
5885.074, 9407, 
5885.076, 9417, 
5885.078, 9427, 
5885.08, 9438, 
5885.082, 9450, 
5885.084, 9464, 
5885.086, 9477, 
5885.088, 9490, 
5885.09, 9504, 
5885.092, 9518, 
5885.094, 9533, 
5885.096, 9546, 
5885.098, 9560, 
5885.1, 9573, 
5885.102, 9586, 
5885.104, 9598, 
5885.106, 9611, 
5885.108, 9623, 
5885.11, 9634, 
5885.112, 9645, 
5885.114, 9655, 
5885.116, 9663, 
5885.118, 9672, 
5885.12, 9681, 
5885.122, 9690, 
5885.124, 9698, 
5885.126, 9705, 
5885.128, 9713, 
5885.13, 9720, 
5885.132, 9727, 
5885.134, 9733, 
5885.136, 9738, 
5885.138, 9744, 
5885.14, 9749, 
5885.142, 9754, 
5885.144, 9758, 
5885.146, 9762, 
5885.148, 9766, 
5885.15, 9770, 
5885.152, 9773, 
5885.154, 9776, 
5885.156, 9779, 
5885.158, 9782, 
5885.16, 9784, 
5885.162, 9786, 
5885.164, 9788, 
5885.166, 9790, 
5885.168, 9792, 
5885.17, 9794, 
5885.172, 9795, 
5885.174, 9796, 
5885.176, 9797, 
5885.178, 9798, 
5885.18, 9799, 
5885.182, 9800, 
5885.184, 9801, 
5885.186, 9801, 
5885.188, 9801, 
5885.19, 9802, 
5885.192, 9802, 
5885.194, 9802, 
5885.196, 9802, 
5885.198, 9802, 
5885.2, 9803, 
5885.202, 9803, 
5885.204, 9803, 
5885.206, 9803, 
5885.208, 9803, 
5885.21, 9804, 
5885.212, 9804, 
5885.214, 9805, 
5885.216, 9805, 
5885.218, 9805, 
5885.22, 9806, 
5885.222, 9807, 
5885.224, 9808, 
5885.226, 9809, 
5885.228, 9810, 
5885.23, 9811, 
5885.232, 9812, 
5885.234, 9813, 
5885.236, 9814, 
5885.238, 9815, 
5885.24, 9816, 
5885.242, 9817, 
5885.244, 9818, 
5885.246, 9818, 
5885.248, 9818, 
5885.25, 9818, 
5885.252, 9818, 
5885.254, 9817, 
5885.256, 9817, 
5885.258, 9816, 
5885.26, 9814, 
5885.262, 9814, 
5885.264, 9812, 
5885.266, 9810, 
5885.268, 9809, 
5885.27, 9807, 
5885.272, 9805, 
5885.274, 9804, 
5885.276, 9802, 
5885.278, 9800, 
5885.28, 9797, 
5885.282, 9795, 
5885.284, 9793, 
5885.286, 9790, 
5885.288, 9788, 
5885.29, 9785, 
5885.292, 9782, 
5885.294, 9779, 
5885.296, 9776, 
5885.298, 9772, 
5885.3, 9768, 
5885.302, 9764, 
5885.304, 9760, 
5885.306, 9755, 
5885.308, 9750, 
5885.31, 9745, 
5885.312, 9739, 
5885.314, 9732, 
5885.316, 9726, 
5885.318, 9719, 
5885.32, 9711, 
5885.322, 9704, 
5885.324, 9696, 
5885.326, 9688, 
5885.328, 9680, 
5885.33, 9672, 
5885.332, 9663, 
5885.334, 9654, 
5885.336, 9646, 
5885.338, 9638, 
5885.34, 9629, 
5885.342, 9620, 
5885.344, 9610, 
5885.346, 9601, 
5885.348, 9592, 
5885.35, 9584, 
5885.352, 9575, 
5885.354, 9566, 
5885.356, 9557, 
5885.358, 9548, 
5885.36, 9540, 
5885.362, 9532, 
5885.364, 9525, 
5885.366, 9519, 
5885.368, 9512, 
5885.37, 9507, 
5885.372, 9502, 
5885.374, 9497, 
5885.376, 9494, 
5885.378, 9491, 
5885.38, 9489, 
5885.382, 9489, 
5885.384, 9489, 
5885.386, 9489, 
5885.388, 9490, 
5885.39, 9493, 
5885.392, 9495, 
5885.394, 9499, 
5885.396, 9503, 
5885.398, 9507, 
5885.4, 9512, 
5885.402, 9517, 
5885.404, 9523, 
5885.406, 9529, 
5885.408, 9536, 
5885.41, 9542, 
5885.412, 9549, 
5885.414, 9556, 
5885.416, 9564, 
5885.418, 9571, 
5885.42, 9579, 
5885.422, 9587, 
5885.424, 9595, 
5885.426, 9602, 
5885.428, 9610, 
5885.43, 9618, 
5885.432, 9625, 
5885.434, 9633, 
5885.436, 9640, 
5885.438, 9647, 
5885.44, 9654, 
5885.442, 9661, 
5885.444, 9667, 
5885.446, 9674, 
5885.448, 9680, 
5885.45, 9686, 
5885.452, 9691, 
5885.454, 9697, 
5885.456, 9702, 
5885.458, 9707, 
5885.46, 9712, 
5885.462, 9716, 
5885.464, 9720, 
5885.466, 9723, 
5885.468, 9726, 
5885.47, 9730, 
5885.472, 9733, 
5885.474, 9736, 
5885.476, 9739, 
5885.478, 9742, 
5885.48, 9744, 
5885.482, 9747, 
5885.484, 9750, 
5885.486, 9753, 
5885.488, 9755, 
5885.49, 9758, 
5885.492, 9761, 
5885.494, 9764, 
5885.496, 9767, 
5885.498, 9770, 
5885.5, 9772, 
5885.502, 9775, 
5885.504, 9778, 
5885.506, 9781, 
5885.508, 9784, 
5885.51, 9787, 
5885.512, 9789, 
5885.514, 9792, 
5885.516, 9795, 
5885.518, 9797, 
5885.52, 9800, 
5885.522, 9801, 
5885.524, 9803, 
5885.526, 9804, 
5885.528, 9806, 
5885.53, 9807, 
5885.532, 9808, 
5885.534, 9809, 
5885.536, 9809, 
5885.538, 9810, 
5885.54, 9810, 
5885.542, 9809, 
5885.544, 9809, 
5885.546, 9809, 
5885.548, 9809, 
5885.55, 9808, 
5885.552, 9807, 
5885.554, 9807, 
5885.556, 9806, 
5885.558, 9805, 
5885.56, 9804, 
5885.562, 9803, 
5885.564, 9802, 
5885.566, 9801, 
5885.568, 9800, 
5885.57, 9798, 
5885.572, 9797, 
5885.574, 9796, 
5885.576, 9795, 
5885.578, 9793, 
5885.58, 9792, 
5885.582, 9791, 
5885.584, 9789, 
5885.586, 9787, 
5885.588, 9786, 
5885.59, 9784, 
5885.592, 9782, 
5885.594, 9780, 
5885.596, 9778, 
5885.598, 9776, 
5885.6, 9774, 
5885.602, 9772, 
5885.604, 9771, 
5885.606, 9769, 
5885.608, 9767, 
5885.61, 9766, 
5885.612, 9764, 
5885.614, 9763, 
5885.616, 9762, 
5885.618, 9762, 
5885.62, 9762, 
5885.622, 9762, 
5885.624, 9762, 
5885.626, 9762, 
5885.628, 9763, 
5885.63, 9764, 
5885.632, 9765, 
5885.634, 9766, 
5885.636, 9768, 
5885.638, 9770, 
5885.64, 9772, 
5885.642, 9774, 
5885.644, 9776, 
5885.646, 9778, 
5885.648, 9781, 
5885.65, 9783, 
5885.652, 9785, 
5885.654, 9788, 
5885.656, 9790, 
5885.658, 9793, 
5885.66, 9794, 
5885.662, 9796, 
5885.664, 9798, 
5885.666, 9800, 
5885.668, 9802, 
5885.67, 9803, 
5885.672, 9804, 
5885.674, 9805, 
5885.676, 9806, 
5885.678, 9807, 
5885.68, 9807, 
5885.682, 9808, 
5885.684, 9808, 
5885.686, 9808, 
5885.688, 9808, 
5885.69, 9809, 
5885.692, 9809, 
5885.694, 9809, 
5885.696, 9809, 
5885.698, 9809, 
5885.7, 9809, 
5885.702, 9810, 
5885.704, 9810, 
5885.706, 9810, 
5885.708, 9810, 
5885.71, 9810, 
5885.712, 9810, 
5885.714, 9810, 
5885.716, 9811, 
5885.718, 9811, 
5885.72, 9811, 
5885.722, 9811, 
5885.724, 9811, 
5885.726, 9811, 
5885.728, 9811, 
5885.73, 9811, 
5885.732, 9812, 
5885.734, 9812, 
5885.736, 9812, 
5885.738, 9813, 
5885.74, 9813, 
5885.742, 9813, 
5885.744, 9813, 
5885.746, 9812, 
5885.748, 9812, 
5885.75, 9812, 
5885.752, 9811, 
5885.754, 9811, 
5885.756, 9811, 
5885.758, 9810, 
5885.76, 9810, 
5885.762, 9809, 
5885.764, 9809, 
5885.766, 9808, 
5885.768, 9807, 
5885.77, 9807, 
5885.772, 9807, 
5885.774, 9807, 
5885.776, 9807, 
5885.778, 9807, 
5885.78, 9807, 
5885.782, 9807, 
5885.784, 9807, 
5885.786, 9807, 
5885.788, 9808, 
5885.79, 9808, 
5885.792, 9809, 
5885.794, 9809, 
5885.796, 9810, 
5885.798, 9810, 
5885.8, 9810, 
5885.802, 9811, 
5885.804, 9812, 
5885.806, 9812, 
5885.808, 9812, 
5885.81, 9812, 
5885.812, 9813, 
5885.814, 9813, 
5885.816, 9813, 
5885.818, 9814, 
5885.82, 9814, 
5885.822, 9815, 
5885.824, 9815, 
5885.826, 9815, 
5885.828, 9816, 
5885.83, 9817, 
5885.832, 9817, 
5885.834, 9817, 
5885.836, 9817, 
5885.838, 9818, 
5885.84, 9818, 
5885.842, 9818, 
5885.844, 9818, 
5885.846, 9819, 
5885.848, 9818, 
5885.85, 9818, 
5885.852, 9818, 
5885.854, 9817, 
5885.856, 9817, 
5885.858, 9816, 
5885.86, 9815, 
5885.862, 9814, 
5885.864, 9813, 
5885.866, 9812, 
5885.868, 9810, 
5885.87, 9809, 
5885.872, 9807, 
5885.874, 9806, 
5885.876, 9804, 
5885.878, 9802, 
5885.88, 9801, 
5885.882, 9799, 
5885.884, 9798, 
5885.886, 9796, 
5885.888, 9794, 
5885.89, 9792, 
5885.892, 9790, 
5885.894, 9788, 
5885.896, 9785, 
5885.898, 9782, 
5885.9, 9780, 
5885.902, 9777, 
5885.904, 9774, 
5885.906, 9770, 
5885.908, 9766, 
5885.91, 9762, 
5885.912, 9757, 
5885.914, 9752, 
5885.916, 9746, 
5885.918, 9739, 
5885.92, 9733, 
5885.922, 9726, 
5885.924, 9717, 
5885.926, 9708, 
5885.928, 9698, 
5885.93, 9690, 
5885.932, 9680, 
5885.934, 9667, 
5885.936, 9653, 
5885.938, 9638, 
5885.94, 9623, 
5885.942, 9606, 
5885.944, 9588, 
5885.946, 9568, 
5885.948, 9545, 
5885.95, 9520, 
5885.952, 9492, 
5885.954, 9459, 
5885.956, 9428, 
5885.958, 9403, 
5885.96, 9388, 
5885.962, 9372, 
5885.964, 9357, 
5885.966, 9350, 
5885.968, 9353, 
5885.97, 9365, 
5885.972, 9379, 
5885.974, 9395, 
5885.976, 9415, 
5885.978, 9437, 
5885.98, 9462, 
5885.982, 9488, 
5885.984, 9513, 
5885.986, 9536, 
5885.988, 9556, 
5885.99, 9574, 
5885.992, 9593, 
5885.994, 9610, 
5885.996, 9626, 
5885.998, 9640, 
5886.0, 9654, 
5886.002, 9666, 
5886.004, 9678, 
5886.006, 9689, 
5886.008, 9697, 
5886.01, 9704, 
5886.012, 9712, 
5886.014, 9720, 
5886.016, 9727, 
5886.018, 9733, 
5886.02, 9739, 
5886.022, 9745, 
5886.024, 9749, 
5886.026, 9753, 
5886.028, 9757, 
5886.03, 9760, 
5886.032, 9763, 
5886.034, 9765, 
5886.036, 9767, 
5886.038, 9769, 
5886.04, 9771, 
5886.042, 9772, 
5886.044, 9773, 
5886.046, 9774, 
5886.048, 9775, 
5886.05, 9775, 
5886.052, 9776, 
5886.054, 9776, 
5886.056, 9777, 
5886.058, 9777, 
5886.06, 9778, 
5886.062, 9778, 
5886.064, 9780, 
5886.066, 9781, 
5886.068, 9781, 
5886.07, 9781, 
5886.072, 9781, 
5886.074, 9782, 
5886.076, 9782, 
5886.078, 9782, 
5886.08, 9782, 
5886.082, 9782, 
5886.084, 9782, 
5886.086, 9782, 
5886.088, 9782, 
5886.09, 9782, 
5886.092, 9782, 
5886.094, 9781, 
5886.096, 9781, 
5886.098, 9780, 
5886.1, 9780, 
5886.102, 9780, 
5886.104, 9779, 
5886.106, 9779, 
5886.108, 9778, 
5886.11, 9777, 
5886.112, 9777, 
5886.114, 9776, 
5886.116, 9776, 
5886.118, 9775, 
5886.12, 9774, 
5886.122, 9773, 
5886.124, 9772, 
5886.126, 9772, 
5886.128, 9771, 
5886.13, 9770, 
5886.132, 9769, 
5886.134, 9768, 
5886.136, 9766, 
5886.138, 9765, 
5886.14, 9763, 
5886.142, 9761, 
5886.144, 9760, 
5886.146, 9758, 
5886.148, 9756, 
5886.15, 9755, 
5886.152, 9753, 
5886.154, 9751, 
5886.156, 9749, 
5886.158, 9747, 
5886.16, 9745, 
5886.162, 9744, 
5886.164, 9742, 
5886.166, 9739, 
5886.168, 9737, 
5886.17, 9735, 
5886.172, 9733, 
5886.174, 9731, 
5886.176, 9729, 
5886.178, 9727, 
5886.18, 9725, 
5886.182, 9723, 
5886.184, 9721, 
5886.186, 9719, 
5886.188, 9718, 
5886.19, 9716, 
5886.192, 9715, 
5886.194, 9713, 
5886.196, 9713, 
5886.198, 9712, 
5886.2, 9710, 
5886.202, 9710, 
5886.204, 9709, 
5886.206, 9709, 
5886.208, 9708, 
5886.21, 9708, 
5886.212, 9707, 
5886.214, 9707, 
5886.216, 9707, 
5886.218, 9707, 
5886.22, 9707, 
5886.222, 9707, 
5886.224, 9708, 
5886.226, 9708, 
5886.228, 9708, 
5886.23, 9709, 
5886.232, 9709, 
5886.234, 9710, 
5886.236, 9711, 
5886.238, 9712, 
5886.24, 9713, 
5886.242, 9713, 
5886.244, 9714, 
5886.246, 9715, 
5886.248, 9716, 
5886.25, 9718, 
5886.252, 9719, 
5886.254, 9719, 
5886.256, 9720, 
5886.258, 9721, 
5886.26, 9721, 
5886.262, 9722, 
5886.264, 9722, 
5886.266, 9723, 
5886.268, 9723, 
5886.27, 9723, 
5886.272, 9722, 
5886.274, 9721, 
5886.276, 9720, 
5886.278, 9718, 
5886.28, 9716, 
5886.282, 9714, 
5886.284, 9712, 
5886.286, 9709, 
5886.288, 9706, 
5886.29, 9703, 
5886.292, 9699, 
5886.294, 9696, 
5886.296, 9691, 
5886.298, 9687, 
5886.3, 9683, 
5886.302, 9679, 
5886.304, 9675, 
5886.306, 9672, 
5886.308, 9668, 
5886.31, 9664, 
5886.312, 9660, 
5886.314, 9658, 
5886.316, 9655, 
5886.318, 9654, 
5886.32, 9653, 
5886.322, 9652, 
5886.324, 9652, 
5886.326, 9652, 
5886.328, 9652, 
5886.33, 9653, 
5886.332, 9655, 
5886.334, 9658, 
5886.336, 9661, 
5886.338, 9664, 
5886.34, 9667, 
5886.342, 9671, 
5886.344, 9674, 
5886.346, 9678, 
5886.348, 9682, 
5886.35, 9686, 
5886.352, 9689, 
5886.354, 9693, 
5886.356, 9696, 
5886.358, 9699, 
5886.36, 9701, 
5886.362, 9704, 
5886.364, 9705, 
5886.366, 9706, 
5886.368, 9707, 
5886.37, 9708, 
5886.372, 9708, 
5886.374, 9708, 
5886.376, 9708, 
5886.378, 9708, 
5886.38, 9707, 
5886.382, 9706, 
5886.384, 9705, 
5886.386, 9705, 
5886.388, 9704, 
5886.39, 9703, 
5886.392, 9702, 
5886.394, 9701, 
5886.396, 9701, 
5886.398, 9701, 
5886.4, 9702, 
5886.402, 9702, 
5886.404, 9703, 
5886.406, 9704, 
5886.408, 9705, 
5886.41, 9708, 
5886.412, 9709, 
5886.414, 9712, 
5886.416, 9714, 
5886.418, 9717, 
5886.42, 9720, 
5886.422, 9723, 
5886.424, 9725, 
5886.426, 9728, 
5886.428, 9731, 
5886.43, 9734, 
5886.432, 9737, 
5886.434, 9740, 
5886.436, 9743, 
5886.438, 9746, 
5886.44, 9748, 
5886.442, 9751, 
5886.444, 9752, 
5886.446, 9755, 
5886.448, 9756, 
5886.45, 9757, 
5886.452, 9759, 
5886.454, 9760, 
5886.456, 9761, 
5886.458, 9762, 
5886.46, 9763, 
5886.462, 9764, 
5886.464, 9765, 
5886.466, 9765, 
5886.468, 9766, 
5886.47, 9767, 
5886.472, 9768, 
5886.474, 9769, 
5886.476, 9769, 
5886.478, 9770, 
5886.48, 9772, 
5886.482, 9773, 
5886.484, 9774, 
5886.486, 9775, 
5886.488, 9776, 
5886.49, 9777, 
5886.492, 9778, 
5886.494, 9779, 
5886.496, 9779, 
5886.498, 9780, 
5886.5, 9782, 
5886.502, 9783, 
5886.504, 9783, 
5886.506, 9784, 
5886.508, 9784, 
5886.51, 9784, 
5886.512, 9784, 
5886.514, 9784, 
5886.516, 9784, 
5886.518, 9784, 
5886.52, 9784, 
5886.522, 9784, 
5886.524, 9784, 
5886.526, 9785, 
5886.528, 9784, 
5886.53, 9784, 
5886.532, 9783, 
5886.534, 9783, 
5886.536, 9782, 
5886.538, 9781, 
5886.54, 9781, 
5886.542, 9780, 
5886.544, 9780, 
5886.546, 9779, 
5886.548, 9778, 
5886.55, 9778, 
5886.552, 9777, 
5886.554, 9776, 
5886.556, 9775, 
5886.558, 9775, 
5886.56, 9774, 
5886.562, 9774, 
5886.564, 9774, 
5886.566, 9773, 
5886.568, 9772, 
5886.57, 9772, 
5886.572, 9771, 
5886.574, 9771, 
5886.576, 9770, 
5886.578, 9769, 
5886.58, 9769, 
5886.582, 9768, 
5886.584, 9768, 
5886.586, 9767, 
5886.588, 9767, 
5886.59, 9767, 
5886.592, 9767, 
5886.594, 9766, 
5886.596, 9766, 
5886.598, 9766, 
5886.6, 9765, 
5886.602, 9765, 
5886.604, 9765, 
5886.606, 9764, 
5886.608, 9763, 
5886.61, 9763, 
5886.612, 9762, 
5886.614, 9761, 
5886.616, 9761, 
5886.618, 9760, 
5886.62, 9759, 
5886.622, 9758, 
5886.624, 9758, 
5886.626, 9756, 
5886.628, 9755, 
5886.63, 9754, 
5886.632, 9753, 
5886.634, 9751, 
5886.636, 9749, 
5886.638, 9748, 
5886.64, 9746, 
5886.642, 9744, 
5886.644, 9743, 
5886.646, 9741, 
5886.648, 9739, 
5886.65, 9737, 
5886.652, 9736, 
5886.654, 9734, 
5886.656, 9732, 
5886.658, 9731, 
5886.66, 9730, 
5886.662, 9730, 
5886.664, 9729, 
5886.666, 9728, 
5886.668, 9728, 
5886.67, 9729, 
5886.672, 9729, 
5886.674, 9730, 
5886.676, 9732, 
5886.678, 9734, 
5886.68, 9735, 
5886.682, 9737, 
5886.684, 9738, 
5886.686, 9740, 
5886.688, 9743, 
5886.69, 9745, 
5886.692, 9747, 
5886.694, 9749, 
5886.696, 9751, 
5886.698, 9752, 
5886.7, 9754, 
5886.702, 9755, 
5886.704, 9757, 
5886.706, 9758, 
5886.708, 9758, 
5886.71, 9759, 
5886.712, 9759, 
5886.714, 9760, 
5886.716, 9760, 
5886.718, 9760, 
5886.72, 9760, 
5886.722, 9759, 
5886.724, 9758, 
5886.726, 9757, 
5886.728, 9757, 
5886.73, 9756, 
5886.732, 9754, 
5886.734, 9753, 
5886.736, 9751, 
5886.738, 9749, 
5886.74, 9747, 
5886.742, 9744, 
5886.744, 9741, 
5886.746, 9738, 
5886.748, 9735, 
5886.75, 9732, 
5886.752, 9730, 
5886.754, 9727, 
5886.756, 9723, 
5886.758, 9719, 
5886.76, 9714, 
5886.762, 9710, 
5886.764, 9706, 
5886.766, 9702, 
5886.768, 9697, 
5886.77, 9693, 
5886.772, 9689, 
5886.774, 9685, 
5886.776, 9680, 
5886.778, 9676, 
5886.78, 9671, 
5886.782, 9667, 
5886.784, 9664, 
5886.786, 9660, 
5886.788, 9657, 
5886.79, 9654, 
5886.792, 9651, 
5886.794, 9649, 
5886.796, 9646, 
5886.798, 9644, 
5886.8, 9642, 
5886.802, 9641, 
5886.804, 9640, 
5886.806, 9638, 
5886.808, 9638, 
5886.81, 9638, 
5886.812, 9638, 
5886.814, 9638, 
5886.816, 9639, 
5886.818, 9641, 
5886.82, 9642, 
5886.822, 9643, 
5886.824, 9645, 
5886.826, 9648, 
5886.828, 9650, 
5886.83, 9653, 
5886.832, 9655, 
5886.834, 9658, 
5886.836, 9661, 
5886.838, 9664, 
5886.84, 9667, 
5886.842, 9670, 
5886.844, 9673, 
5886.846, 9677, 
5886.848, 9681, 
5886.85, 9684, 
5886.852, 9688, 
5886.854, 9692, 
5886.856, 9696, 
5886.858, 9700, 
5886.86, 9703, 
5886.862, 9708, 
5886.864, 9712, 
5886.866, 9716, 
5886.868, 9720, 
5886.87, 9723, 
5886.872, 9727, 
5886.874, 9730, 
5886.876, 9733, 
5886.878, 9737, 
5886.88, 9740, 
5886.882, 9742, 
5886.884, 9745, 
5886.886, 9747, 
5886.888, 9749, 
5886.89, 9750, 
5886.892, 9752, 
5886.894, 9753, 
5886.896, 9754, 
5886.898, 9755, 
5886.9, 9756, 
5886.902, 9756, 
5886.904, 9757, 
5886.906, 9758, 
5886.908, 9758, 
5886.91, 9758, 
5886.912, 9758, 
5886.914, 9758, 
5886.916, 9759, 
5886.918, 9759, 
5886.92, 9759, 
5886.922, 9759, 
5886.924, 9760, 
5886.926, 9761, 
5886.928, 9761, 
5886.93, 9762, 
5886.932, 9763, 
5886.934, 9764, 
5886.936, 9766, 
5886.938, 9767, 
5886.94, 9768, 
5886.942, 9769, 
5886.944, 9770, 
5886.946, 9771, 
5886.948, 9772, 
5886.95, 9772, 
5886.952, 9773, 
5886.954, 9773, 
5886.956, 9773, 
5886.958, 9774, 
5886.96, 9774, 
5886.962, 9774, 
5886.964, 9775, 
5886.966, 9775, 
5886.968, 9775, 
5886.97, 9775, 
5886.972, 9776, 
5886.974, 9776, 
5886.976, 9776, 
5886.978, 9776, 
5886.98, 9776, 
5886.982, 9776, 
5886.984, 9776, 
5886.986, 9776, 
5886.988, 9775, 
5886.99, 9774, 
5886.992, 9774, 
5886.994, 9774, 
5886.996, 9773, 
5886.998, 9772, 
5887.0, 9771, 
5887.002, 9770, 
5887.004, 9769, 
5887.006, 9768, 
5887.008, 9767, 
5887.01, 9765, 
5887.012, 9763, 
5887.014, 9762, 
5887.016, 9761, 
5887.018, 9759, 
5887.02, 9758, 
5887.022, 9755, 
5887.024, 9754, 
5887.026, 9752, 
5887.028, 9750, 
5887.03, 9748, 
5887.032, 9747, 
5887.034, 9746, 
5887.036, 9745, 
5887.038, 9743, 
5887.04, 9741, 
5887.042, 9740, 
5887.044, 9739, 
5887.046, 9738, 
5887.048, 9736, 
5887.05, 9735, 
5887.052, 9733, 
5887.054, 9732, 
5887.056, 9731, 
5887.058, 9731, 
5887.06, 9729, 
5887.062, 9728, 
5887.064, 9727, 
5887.066, 9727, 
5887.068, 9726, 
5887.07, 9725, 
5887.072, 9725, 
5887.074, 9724, 
5887.076, 9724, 
5887.078, 9724, 
5887.08, 9724, 
5887.082, 9723, 
5887.084, 9723, 
5887.086, 9723, 
5887.088, 9723, 
5887.09, 9723, 
5887.092, 9723, 
5887.094, 9724, 
5887.096, 9724, 
5887.098, 9724, 
5887.1, 9725, 
5887.102, 9725, 
5887.104, 9725, 
5887.106, 9726, 
5887.108, 9726, 
5887.11, 9726, 
5887.112, 9726, 
5887.114, 9726, 
5887.116, 9726, 
5887.118, 9726, 
5887.12, 9725, 
5887.122, 9724, 
5887.124, 9724, 
5887.126, 9722, 
5887.128, 9721, 
5887.13, 9719, 
5887.132, 9718, 
5887.134, 9715, 
5887.136, 9713, 
5887.138, 9710, 
5887.14, 9706, 
5887.142, 9702, 
5887.144, 9699, 
5887.146, 9695, 
5887.148, 9691, 
5887.15, 9685, 
5887.152, 9679, 
5887.154, 9673, 
5887.156, 9666, 
5887.158, 9659, 
5887.16, 9653, 
5887.162, 9644, 
5887.164, 9635, 
5887.166, 9625, 
5887.168, 9617, 
5887.17, 9606, 
5887.172, 9595, 
5887.174, 9583, 
5887.176, 9570, 
5887.178, 9555, 
5887.18, 9540, 
5887.182, 9524, 
5887.184, 9507, 
5887.186, 9487, 
5887.188, 9467, 
5887.19, 9445, 
5887.192, 9423, 
5887.194, 9401, 
5887.196, 9384, 
5887.198, 9370, 
5887.2, 9359, 
5887.202, 9354, 
5887.204, 9352, 
5887.206, 9352, 
5887.208, 9360, 
5887.21, 9374, 
5887.212, 9391, 
5887.214, 9411, 
5887.216, 9432, 
5887.218, 9452, 
5887.22, 9471, 
5887.222, 9488, 
5887.224, 9504, 
5887.226, 9520, 
5887.228, 9535, 
5887.23, 9549, 
5887.232, 9563, 
5887.234, 9575, 
5887.236, 9586, 
5887.238, 9598, 
5887.24, 9610, 
5887.242, 9620, 
5887.244, 9630, 
5887.246, 9638, 
5887.248, 9644, 
5887.25, 9652, 
5887.252, 9659, 
5887.254, 9666, 
5887.256, 9673, 
5887.258, 9678, 
5887.26, 9684, 
5887.262, 9689, 
5887.264, 9693, 
5887.266, 9697, 
5887.268, 9701, 
5887.27, 9704, 
5887.272, 9707, 
5887.274, 9710, 
5887.276, 9712, 
5887.278, 9715, 
5887.28, 9717, 
5887.282, 9719, 
5887.284, 9720, 
5887.286, 9721, 
5887.288, 9723, 
5887.29, 9725, 
5887.292, 9726, 
5887.294, 9727, 
5887.296, 9728, 
5887.298, 9729, 
5887.3, 9730, 
5887.302, 9730, 
5887.304, 9731, 
5887.306, 9732, 
5887.308, 9733, 
5887.31, 9734, 
5887.312, 9735, 
5887.314, 9735, 
5887.316, 9736, 
5887.318, 9737, 
5887.32, 9738, 
5887.322, 9738, 
5887.324, 9738, 
5887.326, 9739, 
5887.328, 9739, 
5887.33, 9738, 
5887.332, 9738, 
5887.334, 9738, 
5887.336, 9737, 
5887.338, 9736, 
5887.34, 9736, 
5887.342, 9734, 
5887.344, 9733, 
5887.346, 9731, 
5887.348, 9730, 
5887.35, 9729, 
5887.352, 9728, 
5887.354, 9726, 
5887.356, 9724, 
5887.358, 9722, 
5887.36, 9720, 
5887.362, 9718, 
5887.364, 9716, 
5887.366, 9713, 
5887.368, 9711, 
5887.37, 9708, 
5887.372, 9706, 
5887.374, 9702, 
