Wavelength (Angstroms), Normalized intensity, Element
5168.0, 8024, 
5168.002, 8036, 
5168.004, 8047, 
5168.006, 8058, 
5168.008, 8068, 
5168.01, 8078, 
5168.012, 8088, 
5168.014, 8098, 
5168.016, 8107, 
5168.018, 8116, 
5168.02, 8124, 
5168.022, 8133, 
5168.024, 8141, 
5168.026, 8150, 
5168.028, 8157, 
5168.03, 8165, 
5168.032, 8172, 
5168.034, 8179, 
5168.036, 8186, 
5168.038, 8193, 
5168.04, 8198, 
5168.042, 8204, 
5168.044, 8209, 
5168.046, 8214, 
5168.048, 8218, 
5168.05, 8222, 
5168.052, 8225, 
5168.054, 8229, 
5168.056, 8231, 
5168.058, 8233, 
5168.06, 8236, 
5168.062, 8236, 
5168.064, 8236, 
5168.066, 8237, 
5168.068, 8236, 
5168.07, 8234, 
5168.072, 8231, 
5168.074, 8228, 
5168.076, 8225, 
5168.078, 8221, 
5168.08, 8216, 
5168.082, 8210, 
5168.084, 8205, 
5168.086, 8199, 
5168.088, 8191, 
5168.09, 8184, 
5168.092, 8177, 
5168.094, 8169, 
5168.096, 8159, 
5168.098, 8149, 
5168.1, 8141, 
5168.102, 8131, 
5168.104, 8118, 
5168.106, 8106, 
5168.108, 8094, 
5168.11, 8081, 
5168.112, 8067, 
5168.114, 8051, 
5168.116, 8036, 
5168.118, 8021, 
5168.12, 8005, 
5168.122, 7989, 
5168.124, 7973, 
5168.126, 7957, 
5168.128, 7943, 
5168.13, 7928, 
5168.132, 7915, 
5168.134, 7902, 
5168.136, 7890, 
5168.138, 7879, 
5168.14, 7870, 
5168.142, 7860, 
5168.144, 7851, 
5168.146, 7843, 
5168.148, 7838, 
5168.15, 7834, 
5168.152, 7830, 
5168.154, 7828, 
5168.156, 7826, 
5168.158, 7826, 
5168.16, 7826, 
5168.162, 7827, 
5168.164, 7829, 
5168.166, 7832, 
5168.168, 7835, 
5168.17, 7839, 
5168.172, 7844, 
5168.174, 7849, 
5168.176, 7854, 
5168.178, 7859, 
5168.18, 7864, 
5168.182, 7870, 
5168.184, 7874, 
5168.186, 7880, 
5168.188, 7886, 
5168.19, 7892, 
5168.192, 7898, 
5168.194, 7904, 
5168.196, 7910, 
5168.198, 7916, 
5168.2, 7922, 
5168.202, 7929, 
5168.204, 7935, 
5168.206, 7942, 
5168.208, 7948, 
5168.21, 7956, 
5168.212, 7964, 
5168.214, 7970, 
5168.216, 7978, 
5168.218, 7987, 
5168.22, 7996, 
5168.222, 8004, 
5168.224, 8014, 
5168.226, 8024, 
5168.228, 8033, 
5168.23, 8043, 
5168.232, 8056, 
5168.234, 8067, 
5168.236, 8080, 
5168.238, 8093, 
5168.24, 8107, 
5168.242, 8120, 
5168.244, 8135, 
5168.246, 8150, 
5168.248, 8165, 
5168.25, 8181, 
5168.252, 8197, 
5168.254, 8212, 
5168.256, 8229, 
5168.258, 8245, 
5168.26, 8261, 
5168.262, 8278, 
5168.264, 8294, 
5168.266, 8310, 
5168.268, 8326, 
5168.27, 8343, 
5168.272, 8358, 
5168.274, 8374, 
5168.276, 8390, 
5168.278, 8404, 
5168.28, 8420, 
5168.282, 8435, 
5168.284, 8448, 
5168.286, 8462, 
5168.288, 8475, 
5168.29, 8487, 
5168.292, 8499, 
5168.294, 8511, 
5168.296, 8522, 
5168.298, 8532, 
5168.3, 8543, 
5168.302, 8552, 
5168.304, 8562, 
5168.306, 8572, 
5168.308, 8580, 
5168.31, 8590, 
5168.312, 8598, 
5168.314, 8606, 
5168.316, 8614, 
5168.318, 8623, 
5168.32, 8630, 
5168.322, 8637, 
5168.324, 8645, 
5168.326, 8652, 
5168.328, 8658, 
5168.33, 8665, 
5168.332, 8672, 
5168.334, 8678, 
5168.336, 8684, 
5168.338, 8690, 
5168.34, 8695, 
5168.342, 8700, 
5168.344, 8706, 
5168.346, 8710, 
5168.348, 8714, 
5168.35, 8719, 
5168.352, 8724, 
5168.354, 8727, 
5168.356, 8731, 
5168.358, 8735, 
5168.36, 8738, 
5168.362, 8742, 
5168.364, 8746, 
5168.366, 8750, 
5168.368, 8753, 
5168.37, 8757, 
5168.372, 8760, 
5168.374, 8763, 
5168.376, 8766, 
5168.378, 8769, 
5168.38, 8773, 
5168.382, 8775, 
5168.384, 8777, 
5168.386, 8780, 
5168.388, 8781, 
5168.39, 8782, 
5168.392, 8784, 
5168.394, 8786, 
5168.396, 8786, 
5168.398, 8787, 
5168.4, 8788, 
5168.402, 8788, 
5168.404, 8789, 
5168.406, 8789, 
5168.408, 8789, 
5168.41, 8788, 
5168.412, 8788, 
5168.414, 8789, 
5168.416, 8788, 
5168.418, 8787, 
5168.42, 8787, 
5168.422, 8788, 
5168.424, 8787, 
5168.426, 8786, 
5168.428, 8786, 
5168.43, 8787, 
5168.432, 8785, 
5168.434, 8786, 
5168.436, 8786, 
5168.438, 8787, 
5168.44, 8786, 
5168.442, 8786, 
5168.444, 8787, 
5168.446, 8787, 
5168.448, 8788, 
5168.45, 8789, 
5168.452, 8789, 
5168.454, 8789, 
5168.456, 8790, 
5168.458, 8791, 
5168.46, 8791, 
5168.462, 8792, 
5168.464, 8792, 
5168.466, 8793, 
5168.468, 8793, 
5168.47, 8793, 
5168.472, 8794, 
5168.474, 8793, 
5168.476, 8793, 
5168.478, 8792, 
5168.48, 8792, 
5168.482, 8790, 
5168.484, 8789, 
5168.486, 8787, 
5168.488, 8785, 
5168.49, 8782, 
5168.492, 8779, 
5168.494, 8775, 
5168.496, 8772, 
5168.498, 8767, 
5168.5, 8761, 
5168.502, 8755, 
5168.504, 8748, 
5168.506, 8742, 
5168.508, 8733, 
5168.51, 8725, 
5168.512, 8715, 
5168.514, 8706, 
5168.516, 8695, 
5168.518, 8682, 
5168.52, 8668, 
5168.522, 8652, 
5168.524, 8635, 
5168.526, 8617, 
5168.528, 8598, 
5168.53, 8579, 
5168.532, 8557, 
5168.534, 8534, 
5168.536, 8510, 
5168.538, 8485, 
5168.54, 8460, 
5168.542, 8435, 
5168.544, 8409, 
5168.546, 8382, 
5168.548, 8354, 
5168.55, 8324, 
5168.552, 8294, 
5168.554, 8263, 
5168.556, 8230, 
5168.558, 8196, 
5168.56, 8158, 
5168.562, 8118, 
5168.564, 8071, 
5168.566, 8021, 
5168.568, 7968, 
5168.57, 7911, 
5168.572, 7851, 
5168.574, 7789, 
5168.576, 7724, 
5168.578, 7655, 
5168.58, 7583, 
5168.582, 7505, 
5168.584, 7421, 
5168.586, 7332, 
5168.588, 7238, 
5168.59, 7142, 
5168.592, 7042, 
5168.594, 6934, 
5168.596, 6820, 
5168.598, 6700, 
5168.6, 6580, 
5168.602, 6456, 
5168.604, 6333, 
5168.606, 6204, 
5168.608, 6071, 
5168.61, 5935, 
5168.612, 5796, 
5168.614, 5652, 
5168.616, 5515, 
5168.618, 5382, 
5168.62, 5251, 
5168.622, 5115, 
5168.624, 4979, 
5168.626, 4845, 
5168.628, 4711, 
5168.63, 4582, 
5168.632, 4457, 
5168.634, 4333, 
5168.636, 4215, 
5168.638, 4101, 
5168.64, 3997, 
5168.642, 3890, 
5168.644, 3791, 
5168.646, 3705, 
5168.648, 3625, 
5168.65, 3552, 
5168.652, 3485, 
5168.654, 3431, 
5168.656, 3386, 
5168.658, 3351, 
5168.66, 3328, 
5168.662, 3314, 
5168.664, 3308, 
5168.666, 3317, 
5168.668, 3337, 
5168.67, 3367, 
5168.672, 3415, 
5168.674, 3478, 
5168.676, 3553, 
5168.678, 3640, 
5168.68, 3745, 
5168.682, 3863, 
5168.684, 3997, 
5168.686, 4143, 
5168.688, 4294, 
5168.69, 4449, 
5168.692, 4617, 
5168.694, 4792, 
5168.696, 4974, 
5168.698, 5157, 
5168.7, 5335, 
5168.702, 5509, 
5168.704, 5678, 
5168.706, 5851, 
5168.708, 6017, 
5168.71, 6175, 
5168.712, 6330, 
5168.714, 6474, 
5168.716, 6611, 
5168.718, 6740, 
5168.72, 6861, 
5168.722, 6969, 
5168.724, 7063, 
5168.726, 7157, 
5168.728, 7248, 
5168.73, 7331, 
5168.732, 7408, 
5168.734, 7480, 
5168.736, 7544, 
5168.738, 7603, 
5168.74, 7656, 
5168.742, 7704, 
5168.744, 7747, 
5168.746, 7785, 
5168.748, 7818, 
5168.75, 7848, 
5168.752, 7874, 
5168.754, 7896, 
5168.756, 7913, 
5168.758, 7929, 
5168.76, 7946, 
5168.762, 7959, 
5168.764, 7969, 
5168.766, 7978, 
5168.768, 7983, 
5168.77, 7986, 
5168.772, 7986, 
5168.774, 7984, 
5168.776, 7980, 
5168.778, 7972, 
5168.78, 7963, 
5168.782, 7950, 
5168.784, 7937, 
5168.786, 7920, 
5168.788, 7903, 
5168.79, 7885, 
5168.792, 7860, 
5168.794, 7833, 
5168.796, 7801, 
5168.798, 7766, 
5168.8, 7729, 
5168.802, 7686, 
5168.804, 7638, 
5168.806, 7583, 
5168.808, 7524, 
5168.81, 7459, 
5168.812, 7391, 
5168.814, 7316, 
5168.816, 7234, 
5168.818, 7145, 
5168.82, 7049, 
5168.822, 6944, 
5168.824, 6836, 
5168.826, 6711, 
5168.828, 6571, 
5168.83, 6425, 
5168.832, 6271, 
5168.834, 6105, 
5168.836, 5938, 
5168.838, 5768, 
5168.84, 5586, 
5168.842, 5390, 
5168.844, 5190, 
5168.846, 4987, 
5168.848, 4790, 
5168.85, 4585, 
5168.852, 4377, 
5168.854, 4165, 
5168.856, 3952, 
5168.858, 3748, 
5168.86, 3553, 
5168.862, 3362, 
5168.864, 3178, 
5168.866, 3004, 
5168.868, 2836, 
5168.87, 2681, 
5168.872, 2538, 
5168.874, 2407, 
5168.876, 2290, 
5168.878, 2188, 
5168.88, 2097, 
5168.882, 2012, 
5168.884, 1937, 
5168.886, 1870, 
5168.888, 1813, 
5168.89, 1764, 
5168.892, 1725, 
5168.894, 1695, 
5168.896, 1667, 
5168.898, 1643, 
5168.9, 1625, 
5168.902, 1611, 
5168.904, 1603, 
5168.906, 1599, 
5168.908, 1599, 
5168.91, 1602, Fe  b3 
5168.912, 1611, 
5168.914, 1625, 
5168.916, 1642, 
5168.918, 1663, 
5168.92, 1690, 
5168.922, 1721, 
5168.924, 1755, 
5168.926, 1798, 
5168.928, 1849, 
5168.93, 1910, 
5168.932, 1976, 
5168.934, 2047, 
5168.936, 2125, 
5168.938, 2205, 
5168.94, 2289, 
5168.942, 2379, 
5168.944, 2471, 
5168.946, 2563, 
5168.948, 2652, 
5168.95, 2737, 
5168.952, 2813, 
5168.954, 2881, 
5168.956, 2939, 
5168.958, 2991, 
5168.96, 3033, 
5168.962, 3064, 
5168.964, 3083, 
5168.966, 3089, 
5168.968, 3081, 
5168.97, 3066, 
5168.972, 3039, 
5168.974, 2999, 
5168.976, 2950, 
5168.978, 2895, 
5168.98, 2834, 
5168.982, 2770, 
5168.984, 2703, 
5168.986, 2632, 
5168.988, 2556, 
5168.99, 2480, 
5168.992, 2404, 
5168.994, 2330, 
5168.996, 2258, 
5168.998, 2196, 
5169.0, 2195, 
5169.002, 2133, 
5169.004, 2073, 
5169.006, 2019, 
5169.008, 1971, 
5169.01, 1924, 
5169.012, 1884, 
5169.014, 1848, 
5169.016, 1816, 
5169.018, 1785, 
5169.02, 1760, 
5169.022, 1737, 
5169.024, 1715, 
5169.026, 1696, 
5169.028, 1679, 
5169.03, 1666, 
5169.032, 1655, 
5169.034, 1645, 
5169.036, 1637, 
5169.038, 1633, 
5169.04, 1632, 
5169.042, 1632, 
5169.044, 1634, 
5169.046, 1640, 
5169.048, 1647, 
5169.05, 1658, 
5169.052, 1671, 
5169.054, 1685, 
5169.056, 1702, 
5169.058, 1724, 
5169.06, 1747, 
5169.062, 1774, 
5169.064, 1806, 
5169.066, 1840, 
5169.068, 1878, 
5169.07, 1926, 
5169.072, 1978, 
5169.074, 2036, 
5169.076, 2102, 
5169.078, 2174, 
5169.08, 2254, 
5169.082, 2342, 
5169.084, 2436, 
5169.086, 2533, 
5169.088, 2638, 
5169.09, 2754, 
5169.092, 2877, 
5169.094, 3005, 
5169.096, 3140, 
5169.098, 3278, 
5169.1, 3421, 
5169.102, 3559, 
5169.104, 3698, 
5169.106, 3839, 
5169.108, 3981, 
5169.11, 4123, 
5169.112, 4267, 
5169.114, 4406, 
5169.116, 4540, 
5169.118, 4670, 
5169.12, 4798, 
5169.122, 4921, 
5169.124, 5040, 
5169.126, 5159, 
5169.128, 5273, 
5169.13, 5382, 
5169.132, 5486, 
5169.134, 5584, 
5169.136, 5679, 
5169.138, 5769, 
5169.14, 5859, 
5169.142, 5946, 
5169.144, 6032, 
5169.146, 6115, 
5169.148, 6196, 
5169.15, 6274, 
5169.152, 6350, 
5169.154, 6425, 
5169.156, 6494, 
5169.158, 6561, 
5169.16, 6626, 
5169.162, 6691, 
5169.164, 6755, 
5169.166, 6817, 
5169.168, 6876, 
5169.17, 6931, 
5169.172, 6985, 
5169.174, 7037, 
5169.176, 7092, 
5169.178, 7146, 
5169.18, 7199, 
5169.182, 7248, 
5169.184, 7293, 
5169.186, 7337, 
5169.188, 7381, 
5169.19, 7424, 
5169.192, 7468, 
5169.194, 7513, 
5169.196, 7555, 
5169.198, 7594, 
5169.2, 7631, 
5169.202, 7666, 
5169.204, 7699, 
5169.206, 7731, 
5169.208, 7763, 
5169.21, 7794, 
5169.212, 7824, 
5169.214, 7852, 
5169.216, 7880, 
5169.218, 7904, 
5169.22, 7926, 
5169.222, 7946, 
5169.224, 7965, 
5169.226, 7982, 
5169.228, 7997, 
5169.23, 8010, 
5169.232, 8023, 
5169.234, 8034, 
5169.236, 8046, 
5169.238, 8053, 
5169.24, 8055, 
5169.242, 8054, 
5169.244, 8050, 
5169.246, 8042, 
5169.248, 8029, 
5169.25, 8014, 
5169.252, 7999, 
5169.254, 7981, 
5169.256, 7961, 
5169.258, 7938, 
5169.26, 7909, 
5169.262, 7878, 
5169.264, 7842, 
5169.266, 7805, 
5169.268, 7767, 
5169.27, 7726, 
5169.272, 7688, 
5169.274, 7650, 
5169.276, 7613, 
5169.278, 7573, 
5169.28, 7535, 
5169.282, 7499, 
5169.284, 7468, 
5169.286, 7442, 
5169.288, 7422, 
5169.29, 7404, 
5169.292, 7390, 
5169.294, 7380, 
5169.296, 7377, 
5169.298, 7379, 
5169.3, 7386, 
5169.302, 7399, 
5169.304, 7419, 
5169.306, 7447, 
5169.308, 7484, 
5169.31, 7525, 
5169.312, 7569, 
5169.314, 7618, 
5169.316, 7670, 
5169.318, 7726, 
5169.32, 7787, 
5169.322, 7850, 
5169.324, 7913, 
5169.326, 7973, 
5169.328, 8032, 
5169.33, 8090, 
5169.332, 8149, 
5169.334, 8208, 
5169.336, 8268, 
5169.338, 8324, 
5169.34, 8378, 
5169.342, 8429, 
5169.344, 8476, 
5169.346, 8520, 
5169.348, 8562, 
5169.35, 8599, 
5169.352, 8635, 
5169.354, 8669, 
5169.356, 8701, 
5169.358, 8731, 
5169.36, 8759, 
5169.362, 8787, 
5169.364, 8813, 
5169.366, 8837, 
5169.368, 8860, 
5169.37, 8881, 
5169.372, 8901, 
5169.374, 8921, 
5169.376, 8938, 
5169.378, 8954, 
5169.38, 8970, 
5169.382, 8985, 
5169.384, 8998, 
5169.386, 9011, 
5169.388, 9022, 
5169.39, 9031, 
5169.392, 9040, 
5169.394, 9048, 
5169.396, 9055, 
5169.398, 9062, 
5169.4, 9068, 
5169.402, 9074, 
5169.404, 9078, 
5169.406, 9082, 
5169.408, 9086, 
5169.41, 9089, 
5169.412, 9092, 
5169.414, 9094, 
5169.416, 9096, 
5169.418, 9097, 
5169.42, 9098, 
5169.422, 9098, 
5169.424, 9097, 
5169.426, 9096, 
5169.428, 9095, 
5169.43, 9093, 
5169.432, 9091, 
5169.434, 9088, 
5169.436, 9082, 
5169.438, 9076, 
5169.44, 9070, 
5169.442, 9064, 
5169.444, 9058, 
5169.446, 9051, 
5169.448, 9045, 
5169.45, 9037, 
5169.452, 9030, 
5169.454, 9022, 
5169.456, 9014, 
5169.458, 9005, 
5169.46, 8999, 
5169.462, 8993, 
5169.464, 8988, 
5169.466, 8983, 
5169.468, 8979, 
5169.47, 8975, 
5169.472, 8970, 
5169.474, 8967, 
5169.476, 8967, 
5169.478, 8967, 
5169.48, 8968, 
5169.482, 8969, 
5169.484, 8971, 
5169.486, 8977, 
5169.488, 8983, 
5169.49, 8991, 
5169.492, 8998, 
5169.494, 9004, 
5169.496, 9012, 
5169.498, 9019, 
5169.5, 9028, 
5169.502, 9039, 
5169.504, 9050, 
5169.506, 9062, 
5169.508, 9074, 
5169.51, 9087, 
5169.512, 9100, 
5169.514, 9113, 
5169.516, 9126, 
5169.518, 9138, 
5169.52, 9150, 
5169.522, 9162, 
5169.524, 9174, 
5169.526, 9185, 
5169.528, 9196, 
5169.53, 9206, 
5169.532, 9215, 
5169.534, 9224, 
5169.536, 9233, 
5169.538, 9242, 
5169.54, 9250, 
5169.542, 9256, 
5169.544, 9264, 
5169.546, 9271, 
5169.548, 9278, 
5169.55, 9284, 
5169.552, 9291, 
5169.554, 9297, 
5169.556, 9302, 
5169.558, 9307, 
5169.56, 9312, 
5169.562, 9317, 
5169.564, 9321, 
5169.566, 9326, 
5169.568, 9330, 
5169.57, 9334, 
5169.572, 9338, 
5169.574, 9342, 
5169.576, 9345, 
5169.578, 9349, 
5169.58, 9353, 
5169.582, 9356, 
5169.584, 9358, 
5169.586, 9362, 
5169.588, 9365, 
5169.59, 9368, 
5169.592, 9371, 
5169.594, 9374, 
5169.596, 9376, 
5169.598, 9379, 
5169.6, 9381, 
5169.602, 9383, 
5169.604, 9385, 
5169.606, 9387, 
5169.608, 9388, 
5169.61, 9391, 
5169.612, 9393, 
5169.614, 9395, 
5169.616, 9396, 
5169.618, 9398, 
5169.62, 9400, 
5169.622, 9401, 
5169.624, 9403, 
5169.626, 9404, 
5169.628, 9405, 
5169.63, 9406, 
5169.632, 9407, 
5169.634, 9408, 
5169.636, 9409, 
5169.638, 9408, 
5169.64, 9408, 
5169.642, 9408, 
5169.644, 9407, 
5169.646, 9406, 
5169.648, 9405, 
5169.65, 9404, 
5169.652, 9403, 
5169.654, 9402, 
5169.656, 9400, 
5169.658, 9398, 
5169.66, 9397, 
5169.662, 9395, 
5169.664, 9394, 
5169.666, 9392, 
5169.668, 9390, 
5169.67, 9388, 
5169.672, 9386, 
5169.674, 9383, 
5169.676, 9381, 
5169.678, 9379, 
5169.68, 9377, 
5169.682, 9375, 
5169.684, 9373, 
5169.686, 9372, 
5169.688, 9370, 
5169.69, 9369, 
5169.692, 9367, 
5169.694, 9367, 
5169.696, 9367, 
5169.698, 9367, 
5169.7, 9367, 
5169.702, 9368, 
5169.704, 9369, 
5169.706, 9370, 
5169.708, 9372, 
5169.71, 9374, 
5169.712, 9377, 
5169.714, 9381, 
5169.716, 9385, 
5169.718, 9388, 
5169.72, 9392, 
5169.722, 9397, 
5169.724, 9401, 
5169.726, 9405, 
5169.728, 9410, 
5169.73, 9414, 
5169.732, 9418, 
5169.734, 9423, 
5169.736, 9427, 
5169.738, 9432, 
5169.74, 9436, 
5169.742, 9440, 
5169.744, 9443, 
5169.746, 9446, 
5169.748, 9449, 
5169.75, 9453, 
5169.752, 9456, 
5169.754, 9459, 
5169.756, 9462, 
5169.758, 9465, 
5169.76, 9468, 
5169.762, 9471, 
5169.764, 9473, 
5169.766, 9475, 
5169.768, 9477, 
5169.77, 9479, 
5169.772, 9482, 
5169.774, 9483, 
5169.776, 9485, 
5169.778, 9487, 
5169.78, 9488, 
5169.782, 9490, 
5169.784, 9490, 
5169.786, 9491, 
5169.788, 9492, 
5169.79, 9493, 
5169.792, 9494, 
5169.794, 9495, 
5169.796, 9496, 
5169.798, 9497, 
5169.8, 9497, 
5169.802, 9497, 
5169.804, 9498, 
5169.806, 9499, 
5169.808, 9500, 
5169.81, 9501, 
5169.812, 9502, 
5169.814, 9503, 
5169.816, 9503, 
5169.818, 9503, 
5169.82, 9503, 
5169.822, 9504, 
5169.824, 9504, 
5169.826, 9505, 
5169.828, 9504, 
5169.83, 9504, 
5169.832, 9504, 
5169.834, 9504, 
5169.836, 9503, 
5169.838, 9502, 
5169.84, 9502, 
5169.842, 9502, 
5169.844, 9502, 
5169.846, 9502, 
5169.848, 9501, 
5169.85, 9501, 
5169.852, 9500, 
5169.854, 9499, 
5169.856, 9498, 
5169.858, 9497, 
5169.86, 9496, 
5169.862, 9496, 
5169.864, 9495, 
5169.866, 9493, 
5169.868, 9492, 
5169.87, 9491, 
5169.872, 9490, 
5169.874, 9488, 
5169.876, 9487, 
5169.878, 9486, 
5169.88, 9485, 
5169.882, 9484, 
5169.884, 9483, 
5169.886, 9482, 
5169.888, 9481, 
5169.89, 9480, 
5169.892, 9478, 
5169.894, 9478, 
5169.896, 9477, 
5169.898, 9476, 
5169.9, 9475, 
5169.902, 9474, 
5169.904, 9473, 
5169.906, 9472, 
5169.908, 9471, 
5169.91, 9469, 
5169.912, 9468, 
5169.914, 9466, 
5169.916, 9466, 
5169.918, 9465, 
5169.92, 9464, 
5169.922, 9464, 
5169.924, 9463, 
5169.926, 9462, 
5169.928, 9461, 
5169.93, 9461, 
5169.932, 9461, 
5169.934, 9461, 
5169.936, 9461, 
5169.938, 9461, 
5169.94, 9461, 
5169.942, 9462, 
5169.944, 9461, 
5169.946, 9461, 
5169.948, 9461, 
5169.95, 9461, 
5169.952, 9461, 
5169.954, 9460, 
5169.956, 9460, 
5169.958, 9459, 
5169.96, 9459, 
5169.962, 9458, 
5169.964, 9457, 
5169.966, 9457, 
5169.968, 9456, 
5169.97, 9455, 
5169.972, 9454, 
5169.974, 9453, 
5169.976, 9452, 
5169.978, 9451, 
5169.98, 9449, 
5169.982, 9447, 
5169.984, 9445, 
5169.986, 9444, 
5169.988, 9442, 
5169.99, 9441, 
5169.992, 9439, 
5169.994, 9438, 
5169.996, 9436, 
5169.998, 9434, 
5170.0, 9434, 
5170.002, 9433, 
5170.004, 9431, 
5170.006, 9430, 
5170.008, 9429, 
5170.01, 9428, 
5170.012, 9427, 
5170.014, 9426, 
5170.016, 9425, 
5170.018, 9424, 
5170.02, 9423, 
5170.022, 9422, 
5170.024, 9420, 
5170.026, 9418, 
5170.028, 9417, 
5170.03, 9415, 
5170.032, 9414, 
5170.034, 9412, 
5170.036, 9410, 
5170.038, 9408, 
5170.04, 9406, 
5170.042, 9404, 
5170.044, 9402, 
5170.046, 9400, 
5170.048, 9398, 
5170.05, 9397, 
5170.052, 9395, 
5170.054, 9393, 
5170.056, 9391, 
5170.058, 9390, 
5170.06, 9389, 
5170.062, 9387, 
5170.064, 9386, 
5170.066, 9385, 
5170.068, 9383, 
5170.07, 9382, 
5170.072, 9381, 
5170.074, 9380, 
5170.076, 9379, 
5170.078, 9378, 
5170.08, 9377, 
5170.082, 9376, 
5170.084, 9376, 
5170.086, 9375, 
5170.088, 9375, 
5170.09, 9375, 
5170.092, 9375, 
5170.094, 9375, 
5170.096, 9375, 
5170.098, 9375, 
5170.1, 9376, 
5170.102, 9377, 
5170.104, 9378, 
5170.106, 9379, 
5170.108, 9381, 
5170.11, 9382, 
5170.112, 9384, 
5170.114, 9387, 
5170.116, 9389, 
5170.118, 9392, 
5170.12, 9395, 
5170.122, 9398, 
5170.124, 9402, 
5170.126, 9405, 
5170.128, 9408, 
5170.13, 9412, 
5170.132, 9415, 
5170.134, 9419, 
5170.136, 9423, 
5170.138, 9427, 
5170.14, 9430, 
5170.142, 9434, 
5170.144, 9437, 
5170.146, 9440, 
5170.148, 9444, 
5170.15, 9447, 
5170.152, 9450, 
5170.154, 9452, 
5170.156, 9455, 
5170.158, 9457, 
5170.16, 9459, 
5170.162, 9461, 
5170.164, 9464, 
5170.166, 9466, 
5170.168, 9468, 
5170.17, 9470, 
5170.172, 9471, 
5170.174, 9473, 
5170.176, 9474, 
5170.178, 9475, 
5170.18, 9477, 
5170.182, 9477, 
5170.184, 9478, 
5170.186, 9478, 
5170.188, 9478, 
5170.19, 9477, 
5170.192, 9477, 
5170.194, 9477, 
5170.196, 9476, 
5170.198, 9475, 
5170.2, 9474, 
5170.202, 9473, 
5170.204, 9472, 
5170.206, 9470, 
5170.208, 9469, 
5170.21, 9468, 
5170.212, 9467, 
5170.214, 9466, 
5170.216, 9465, 
5170.218, 9463, 
5170.22, 9462, 
5170.222, 9461, 
5170.224, 9460, 
5170.226, 9460, 
5170.228, 9459, 
5170.23, 9458, 
5170.232, 9457, 
5170.234, 9457, 
5170.236, 9457, 
5170.238, 9457, 
5170.24, 9457, 
5170.242, 9457, 
5170.244, 9457, 
5170.246, 9458, 
5170.248, 9458, 
5170.25, 9459, 
5170.252, 9460, 
5170.254, 9461, 
5170.256, 9461, 
5170.258, 9462, 
5170.26, 9464, 
5170.262, 9465, 
5170.264, 9466, 
5170.266, 9467, 
5170.268, 9469, 
5170.27, 9470, 
5170.272, 9471, 
5170.274, 9473, 
5170.276, 9474, 
5170.278, 9475, 
5170.28, 9476, 
5170.282, 9477, 
5170.284, 9478, 
5170.286, 9478, 
5170.288, 9479, 
5170.29, 9479, 
5170.292, 9480, 
5170.294, 9480, 
5170.296, 9480, 
5170.298, 9480, 
5170.3, 9481, 
5170.302, 9481, 
5170.304, 9481, 
5170.306, 9481, 
5170.308, 9481, 
5170.31, 9481, 
5170.312, 9481, 
5170.314, 9481, 
5170.316, 9480, 
5170.318, 9480, 
5170.32, 9479, 
5170.322, 9478, 
5170.324, 9477, 
5170.326, 9477, 
5170.328, 9476, 
5170.33, 9476, 
5170.332, 9475, 
5170.334, 9474, 
5170.336, 9473, 
5170.338, 9473, 
5170.34, 9472, 
5170.342, 9471, 
5170.344, 9470, 
5170.346, 9469, 
5170.348, 9467, 
5170.35, 9466, 
5170.352, 9464, 
5170.354, 9463, 
5170.356, 9460, 
5170.358, 9458, 
5170.36, 9455, 
5170.362, 9453, 
5170.364, 9450, 
5170.366, 9446, 
5170.368, 9443, 
5170.37, 9439, 
5170.372, 9436, 
5170.374, 9431, 
