Wavelength (Angstroms), Normalized intensity, Element
3964.0, 4680, 
3964.002, 4661, 
3964.004, 4643, 
3964.006, 4626, 
3964.008, 4609, 
3964.01, 4593, 
3964.012, 4581, 
3964.014, 4573, 
3964.016, 4571, 
3964.018, 4571, 
3964.02, 4572, 
3964.022, 4578, 
3964.024, 4590, 
3964.026, 4604, 
3964.028, 4618, 
3964.03, 4633, 
3964.032, 4651, 
3964.034, 4669, 
3964.036, 4688, 
3964.038, 4710, 
3964.04, 4730, 
3964.042, 4749, 
3964.044, 4768, 
3964.046, 4785, 
3964.048, 4802, 
3964.05, 4818, 
3964.052, 4832, 
3964.054, 4845, 
3964.056, 4857, 
3964.058, 4866, 
3964.06, 4876, 
3964.062, 4884, 
3964.064, 4891, 
3964.066, 4898, 
3964.068, 4904, 
3964.07, 4910, 
3964.072, 4914, 
3964.074, 4917, 
3964.076, 4919, 
3964.078, 4921, 
3964.08, 4922, 
3964.082, 4922, 
3964.084, 4922, 
3964.086, 4922, 
3964.088, 4921, 
3964.09, 4919, 
3964.092, 4917, 
3964.094, 4914, 
3964.096, 4912, 
3964.098, 4908, 
3964.1, 4904, 
3964.102, 4899, 
3964.104, 4895, 
3964.106, 4890, 
3964.108, 4883, 
3964.11, 4876, 
3964.112, 4869, 
3964.114, 4860, 
3964.116, 4849, 
3964.118, 4839, 
3964.12, 4826, 
3964.122, 4814, 
3964.124, 4800, 
3964.126, 4782, 
3964.128, 4760, 
3964.13, 4737, 
3964.132, 4711, 
3964.134, 4685, 
3964.136, 4656, 
3964.138, 4626, 
3964.14, 4593, 
3964.142, 4557, 
3964.144, 4515, 
3964.146, 4470, 
3964.148, 4423, 
3964.15, 4372, 
3964.152, 4318, 
3964.154, 4261, 
3964.156, 4205, 
3964.158, 4141, 
3964.16, 4075, 
3964.162, 4012, 
3964.164, 3952, 
3964.166, 3891, 
3964.168, 3829, 
3964.17, 3770, 
3964.172, 3714, 
3964.174, 3660, 
3964.176, 3608, 
3964.178, 3558, 
3964.18, 3515, 
3964.182, 3476, 
3964.184, 3442, 
3964.186, 3415, 
3964.188, 3395, 
3964.19, 3380, 
3964.192, 3373, 
3964.194, 3373, 
3964.196, 3382, 
3964.198, 3398, 
3964.2, 3419, 
3964.202, 3444, 
3964.204, 3473, 
3964.206, 3503, 
3964.208, 3535, 
3964.21, 3567, 
3964.212, 3601, 
3964.214, 3631, 
3964.216, 3653, 
3964.218, 3665, 
3964.22, 3667, 
3964.222, 3660, 
3964.224, 3642, 
3964.226, 3613, 
3964.228, 3570, 
3964.23, 3516, 
3964.232, 3451, 
3964.234, 3374, 
3964.236, 3286, 
3964.238, 3186, 
3964.24, 3079, 
3964.242, 2966, 
3964.244, 2848, 
3964.246, 2732, 
3964.248, 2614, 
3964.25, 2495, 
3964.252, 2378, 
3964.254, 2262, 
3964.256, 2154, 
3964.258, 2051, 
3964.26, 1957, 
3964.262, 1872, 
3964.264, 1795, 
3964.266, 1731, 
3964.268, 1682, 
3964.27, 1643, 
3964.272, 1616, 
3964.274, 1604, 
3964.276, 1606, 
3964.278, 1622, 
3964.28, 1655, 
3964.282, 1705, 
3964.284, 1770, 
3964.286, 1850, 
3964.288, 1945, 
3964.29, 2059, 
3964.292, 2184, 
3964.294, 2325, 
3964.296, 2473, 
3964.298, 2626, 
3964.3, 2774, 
3964.302, 2928, 
3964.304, 3076, 
3964.306, 3212, 
3964.308, 3339, 
3964.31, 3462, 
3964.312, 3576, 
3964.314, 3680, 
3964.316, 3779, 
3964.318, 3869, 
3964.32, 3945, 
3964.322, 4007, 
3964.324, 4062, 
3964.326, 4115, 
3964.328, 4163, 
3964.33, 4205, 
3964.332, 4241, 
3964.334, 4272, 
3964.336, 4299, 
3964.338, 4323, 
3964.34, 4346, 
3964.342, 4367, 
3964.344, 4386, 
3964.346, 4402, 
3964.348, 4416, 
3964.35, 4430, 
3964.352, 4442, 
3964.354, 4454, 
3964.356, 4466, 
3964.358, 4477, 
3964.36, 4487, 
3964.362, 4496, 
3964.364, 4505, 
3964.366, 4512, 
3964.368, 4520, 
3964.37, 4526, 
3964.372, 4532, 
3964.374, 4538, 
3964.376, 4542, 
3964.378, 4546, 
3964.38, 4549, 
3964.382, 4553, 
3964.384, 4555, 
3964.386, 4557, 
3964.388, 4558, 
3964.39, 4558, 
3964.392, 4558, 
3964.394, 4557, 
3964.396, 4556, 
3964.398, 4554, 
3964.4, 4552, 
3964.402, 4549, 
3964.404, 4545, 
3964.406, 4542, 
3964.408, 4539, 
3964.41, 4535, 
3964.412, 4530, 
3964.414, 4525, 
3964.416, 4519, 
3964.418, 4513, 
3964.42, 4506, 
3964.422, 4499, 
3964.424, 4490, 
3964.426, 4482, 
3964.428, 4472, 
3964.43, 4462, 
3964.432, 4452, 
3964.434, 4440, 
3964.436, 4427, 
3964.438, 4411, 
3964.44, 4395, 
3964.442, 4375, 
3964.444, 4353, 
3964.446, 4330, 
3964.448, 4301, 
3964.45, 4270, 
3964.452, 4232, 
3964.454, 4192, 
3964.456, 4148, 
3964.458, 4102, 
3964.46, 4047, 
3964.462, 3988, 
3964.464, 3922, 
3964.466, 3849, 
3964.468, 3767, 
3964.47, 3680, 
3964.472, 3590, 
3964.474, 3491, 
3964.476, 3387, 
3964.478, 3277, 
3964.48, 3164, 
3964.482, 3047, 
3964.484, 2926, 
3964.486, 2797, 
3964.488, 2666, 
3964.49, 2538, 
3964.492, 2411, 
3964.494, 2286, 
3964.496, 2165, 
3964.498, 2046, 
3964.5, 1934, 
3964.502, 1829, 
3964.504, 1731, 
3964.506, 1644, 
3964.508, 1567, 
3964.51, 1498, 
3964.512, 1438, 
3964.514, 1393, 
3964.516, 1357, 
3964.518, 1330, 
3964.52, 1312, 
3964.522, 1306, 
3964.524, 1311, 
3964.526, 1328, 
3964.528, 1358, 
3964.53, 1398, 
3964.532, 1449, 
3964.534, 1518, 
3964.536, 1601, 
3964.538, 1695, 
3964.54, 1801, 
3964.542, 1915, 
3964.544, 2039, 
3964.546, 2172, 
3964.548, 2300, 
3964.55, 2425, 
3964.552, 2549, 
3964.554, 2667, 
3964.556, 2778, 
3964.558, 2882, 
3964.56, 2980, 
3964.562, 3072, 
3964.564, 3156, 
3964.566, 3232, 
3964.568, 3303, 
3964.57, 3370, 
3964.572, 3433, 
3964.574, 3487, 
3964.576, 3539, 
3964.578, 3591, 
3964.58, 3643, 
3964.582, 3692, 
3964.584, 3739, 
3964.586, 3784, 
3964.588, 3827, 
3964.59, 3867, 
3964.592, 3905, 
3964.594, 3940, 
3964.596, 3973, 
3964.598, 4004, 
3964.6, 4033, 
3964.602, 4060, 
3964.604, 4085, 
3964.606, 4108, 
3964.608, 4130, 
3964.61, 4149, 
3964.612, 4165, 
3964.614, 4179, 
3964.616, 4192, 
3964.618, 4205, 
3964.62, 4216, 
3964.622, 4225, 
3964.624, 4234, 
3964.626, 4242, 
3964.628, 4249, 
3964.63, 4255, 
3964.632, 4260, 
3964.634, 4264, 
3964.636, 4268, 
3964.638, 4271, 
3964.64, 4274, 
3964.642, 4275, 
3964.644, 4276, 
3964.646, 4277, 
3964.648, 4277, 
3964.65, 4277, 
3964.652, 4277, 
3964.654, 4276, 
3964.656, 4274, 
3964.658, 4273, 
3964.66, 4271, 
3964.662, 4269, 
3964.664, 4266, 
3964.666, 4264, 
3964.668, 4261, 
3964.67, 4258, 
3964.672, 4255, 
3964.674, 4253, 
3964.676, 4249, 
3964.678, 4247, 
3964.68, 4244, 
3964.682, 4241, 
3964.684, 4238, 
3964.686, 4235, 
3964.688, 4233, 
3964.69, 4230, 
3964.692, 4227, 
3964.694, 4225, 
3964.696, 4222, 
3964.698, 4219, 
3964.7, 4216, 
3964.702, 4213, 
3964.704, 4210, 
3964.706, 4206, 
3964.708, 4203, 
3964.71, 4200, 
3964.712, 4196, 
3964.714, 4193, 
3964.716, 4189, 
3964.718, 4186, 
3964.72, 4182, 
3964.722, 4177, 
3964.724, 4174, 
3964.726, 4170, 
3964.728, 4167, 
3964.73, 4163, 
3964.732, 4161, 
3964.734, 4157, 
3964.736, 4155, 
3964.738, 4152, 
3964.74, 4149, 
3964.742, 4148, 
3964.744, 4145, 
3964.746, 4144, 
3964.748, 4143, 
3964.75, 4142, 
3964.752, 4141, 
3964.754, 4140, 
3964.756, 4138, 
3964.758, 4138, 
3964.76, 4137, 
3964.762, 4136, 
3964.764, 4136, 
3964.766, 4135, 
3964.768, 4134, 
3964.77, 4132, 
3964.772, 4131, 
3964.774, 4129, 
3964.776, 4127, 
3964.778, 4126, 
3964.78, 4124, 
3964.782, 4123, 
3964.784, 4120, 
3964.786, 4118, 
3964.788, 4117, 
3964.79, 4115, 
3964.792, 4113, 
3964.794, 4112, 
3964.796, 4109, 
3964.798, 4108, 
3964.8, 4106, 
3964.802, 4105, 
3964.804, 4102, 
3964.806, 4101, 
3964.808, 4099, 
3964.81, 4097, 
3964.812, 4094, 
3964.814, 4092, 
3964.816, 4090, 
3964.818, 4088, 
3964.82, 4087, 
3964.822, 4085, 
3964.824, 4082, 
3964.826, 4080, 
3964.828, 4078, 
3964.83, 4077, 
3964.832, 4075, 
3964.834, 4072, 
3964.836, 4069, 
3964.838, 4067, 
3964.84, 4064, 
3964.842, 4061, 
3964.844, 4058, 
3964.846, 4055, 
3964.848, 4052, 
3964.85, 4050, 
3964.852, 4047, 
3964.854, 4045, 
3964.856, 4042, 
3964.858, 4040, 
3964.86, 4038, 
3964.862, 4035, 
3964.864, 4033, 
3964.866, 4030, 
3964.868, 4028, 
3964.87, 4025, 
3964.872, 4022, 
3964.874, 4019, 
3964.876, 4015, 
3964.878, 4011, 
3964.88, 4007, 
3964.882, 4003, 
3964.884, 3998, 
3964.886, 3993, 
3964.888, 3989, 
3964.89, 3983, 
3964.892, 3978, 
3964.894, 3974, 
3964.896, 3971, 
3964.898, 3968, 
3964.9, 3965, 
3964.902, 3963, 
3964.904, 3961, 
3964.906, 3960, 
3964.908, 3960, 
3964.91, 3962, 
3964.912, 3963, 
3964.914, 3963, 
3964.916, 3965, 
3964.918, 3966, 
3964.92, 3968, 
3964.922, 3970, 
3964.924, 3971, 
3964.926, 3973, 
3964.928, 3975, 
3964.93, 3976, 
3964.932, 3976, 
3964.934, 3977, 
3964.936, 3976, 
3964.938, 3976, 
3964.94, 3975, 
3964.942, 3974, 
3964.944, 3973, 
3964.946, 3971, 
3964.948, 3969, 
3964.95, 3967, 
3964.952, 3965, 
3964.954, 3962, 
3964.956, 3959, 
3964.958, 3955, 
3964.96, 3952, 
3964.962, 3949, 
3964.964, 3945, 
3964.966, 3943, 
3964.968, 3939, 
3964.97, 3935, 
3964.972, 3932, 
3964.974, 3928, 
3964.976, 3924, 
3964.978, 3920, 
3964.98, 3916, 
3964.982, 3912, 
3964.984, 3908, 
3964.986, 3905, 
3964.988, 3901, 
3964.99, 3897, 
3964.992, 3893, 
3964.994, 3889, 
3964.996, 3886, 
3964.998, 3885, 
3965.0, 3880, 
3965.002, 3879, 
3965.004, 3876, 
3965.006, 3873, 
3965.008, 3871, 
3965.01, 3870, 
3965.012, 3868, 
3965.014, 3867, 
3965.016, 3865, 
3965.018, 3864, 
3965.02, 3864, 
3965.022, 3863, 
3965.024, 3862, 
3965.026, 3862, 
3965.028, 3862, 
3965.03, 3862, 
3965.032, 3861, 
3965.034, 3861, 
3965.036, 3860, 
3965.038, 3859, 
3965.04, 3858, 
3965.042, 3857, 
3965.044, 3856, 
3965.046, 3855, 
3965.048, 3854, 
3965.05, 3853, 
3965.052, 3851, 
3965.054, 3850, 
3965.056, 3850, 
3965.058, 3848, 
3965.06, 3846, 
3965.062, 3844, 
3965.064, 3842, 
3965.066, 3840, 
3965.068, 3837, 
3965.07, 3835, 
3965.072, 3832, 
3965.074, 3830, 
3965.076, 3827, 
3965.078, 3824, 
3965.08, 3821, 
3965.082, 3818, 
3965.084, 3817, 
3965.086, 3814, 
3965.088, 3812, 
3965.09, 3810, 
3965.092, 3808, 
3965.094, 3805, 
3965.096, 3804, 
3965.098, 3802, 
3965.1, 3800, 
3965.102, 3799, 
3965.104, 3797, 
3965.106, 3795, 
3965.108, 3794, 
3965.11, 3792, 
3965.112, 3791, 
3965.114, 3789, 
3965.116, 3788, 
3965.118, 3786, 
3965.12, 3784, 
3965.122, 3782, 
3965.124, 3780, 
3965.126, 3778, 
3965.128, 3775, 
3965.13, 3773, 
3965.132, 3770, 
3965.134, 3767, 
3965.136, 3764, 
3965.138, 3760, 
3965.14, 3758, 
3965.142, 3754, 
3965.144, 3750, 
3965.146, 3746, 
3965.148, 3742, 
3965.15, 3737, 
3965.152, 3732, 
3965.154, 3727, 
3965.156, 3722, 
3965.158, 3716, 
3965.16, 3711, 
3965.162, 3706, 
3965.164, 3700, 
3965.166, 3695, 
3965.168, 3689, 
3965.17, 3684, 
3965.172, 3679, 
3965.174, 3673, 
3965.176, 3668, 
3965.178, 3662, 
3965.18, 3657, 
3965.182, 3651, 
3965.184, 3645, 
3965.186, 3639, 
3965.188, 3633, 
3965.19, 3627, 
3965.192, 3620, 
3965.194, 3614, 
3965.196, 3607, 
3965.198, 3601, 
3965.2, 3593, 
3965.202, 3586, 
3965.204, 3579, 
3965.206, 3570, 
3965.208, 3562, 
3965.21, 3553, 
3965.212, 3544, 
3965.214, 3535, 
3965.216, 3526, 
3965.218, 3518, 
3965.22, 3510, 
3965.222, 3503, 
3965.224, 3496, 
3965.226, 3491, 
3965.228, 3485, 
3965.23, 3482, 
3965.232, 3479, 
3965.234, 3476, 
3965.236, 3475, 
3965.238, 3475, 
3965.24, 3476, 
3965.242, 3477, 
3965.244, 3481, 
3965.246, 3484, 
3965.248, 3488, 
3965.25, 3493, 
3965.252, 3499, 
3965.254, 3505, 
3965.256, 3512, 
3965.258, 3518, 
3965.26, 3524, 
3965.262, 3529, 
3965.264, 3533, 
3965.266, 3537, 
3965.268, 3541, 
3965.27, 3544, 
3965.272, 3546, 
3965.274, 3548, 
3965.276, 3549, 
3965.278, 3549, 
3965.28, 3549, 
3965.282, 3549, 
3965.284, 3548, 
3965.286, 3547, 
3965.288, 3546, 
3965.29, 3545, 
3965.292, 3544, 
3965.294, 3542, 
3965.296, 3541, 
3965.298, 3538, 
3965.3, 3535, 
3965.302, 3533, 
3965.304, 3530, 
3965.306, 3527, 
3965.308, 3523, 
3965.31, 3519, 
3965.312, 3516, 
3965.314, 3512, 
3965.316, 3508, 
3965.318, 3504, 
3965.32, 3499, 
3965.322, 3495, 
3965.324, 3492, 
3965.326, 3489, 
3965.328, 3484, 
3965.33, 3481, 
3965.332, 3478, 
3965.334, 3475, 
3965.336, 3472, 
3965.338, 3469, 
3965.34, 3468, 
3965.342, 3466, 
3965.344, 3465, 
3965.346, 3464, 
3965.348, 3463, 
3965.35, 3462, 
3965.352, 3461, 
3965.354, 3460, 
3965.356, 3459, 
3965.358, 3458, 
3965.36, 3456, 
3965.362, 3453, 
3965.364, 3451, 
3965.366, 3448, 
3965.368, 3445, 
3965.37, 3441, 
3965.372, 3437, 
3965.374, 3433, 
3965.376, 3429, 
3965.378, 3424, 
3965.38, 3420, 
3965.382, 3416, 
3965.384, 3411, 
3965.386, 3407, 
3965.388, 3402, 
3965.39, 3398, 
3965.392, 3395, 
3965.394, 3390, 
3965.396, 3386, 
3965.398, 3382, 
3965.4, 3378, 
3965.402, 3373, 
3965.404, 3369, 
3965.406, 3363, 
3965.408, 3358, 
3965.41, 3353, 
3965.412, 3347, 
3965.414, 3341, 
3965.416, 3334, 
3965.418, 3326, 
3965.42, 3317, 
3965.422, 3308, 
3965.424, 3297, 
3965.426, 3285, 
3965.428, 3272, 
3965.43, 3257, 
3965.432, 3238, 
3965.434, 3217, 
3965.436, 3195, 
3965.438, 3171, 
3965.44, 3146, 
3965.442, 3122, 
3965.444, 3095, 
3965.446, 3066, 
3965.448, 3037, 
3965.45, 3007, 
3965.452, 2975, 
3965.454, 2946, 
3965.456, 2917, 
3965.458, 2888, 
3965.46, 2858, 
3965.462, 2827, 
3965.464, 2796, 
3965.466, 2765, 
3965.468, 2732, 
3965.47, 2697, 
3965.472, 2657, 
3965.474, 2616, 
3965.476, 2571, 
3965.478, 2523, 
3965.48, 2471, 
3965.482, 2415, 
3965.484, 2355, 
3965.486, 2292, 
3965.488, 2226, 
3965.49, 2159, 
3965.492, 2087, 
3965.494, 2015, 
3965.496, 1943, 
3965.498, 1875, 
3965.5, 1813, 
3965.502, 1756, 
3965.504, 1703, 
3965.506, 1656, 
3965.508, 1619, 
3965.51, 1591, 
3965.512, 1573, 
3965.514, 1565, 
3965.516, 1567, 
3965.518, 1581, 
3965.52, 1606, 
3965.522, 1642, 
3965.524, 1689, 
3965.526, 1749, 
3965.528, 1818, 
3965.53, 1897, 
3965.532, 1981, 
3965.534, 2070, 
3965.536, 2157, 
3965.538, 2247, 
3965.54, 2338, 
3965.542, 2428, 
3965.544, 2514, 
3965.546, 2594, 
3965.548, 2666, 
3965.55, 2731, 
3965.552, 2791, 
3965.554, 2845, 
3965.556, 2894, 
3965.558, 2937, 
3965.56, 2973, 
3965.562, 3005, 
3965.564, 3032, 
3965.566, 3052, 
3965.568, 3072, 
3965.57, 3087, 
3965.572, 3100, 
3965.574, 3109, 
3965.576, 3118, 
3965.578, 3126, 
3965.58, 3132, 
3965.582, 3138, 
3965.584, 3143, 
3965.586, 3146, 
3965.588, 3149, 
3965.59, 3151, 
3965.592, 3153, 
3965.594, 3155, 
3965.596, 3156, 
3965.598, 3157, 
3965.6, 3158, 
3965.602, 3159, 
3965.604, 3160, 
3965.606, 3161, 
3965.608, 3162, 
3965.61, 3163, 
3965.612, 3164, 
3965.614, 3165, 
3965.616, 3167, 
3965.618, 3168, 
3965.62, 3169, 
3965.622, 3170, 
3965.624, 3170, 
3965.626, 3170, 
3965.628, 3170, 
3965.63, 3170, 
3965.632, 3169, 
3965.634, 3167, 
3965.636, 3167, 
3965.638, 3165, 
3965.64, 3164, 
3965.642, 3162, 
3965.644, 3160, 
3965.646, 3158, 
3965.648, 3156, 
3965.65, 3152, 
3965.652, 3149, 
3965.654, 3146, 
3965.656, 3141, 
3965.658, 3136, 
3965.66, 3131, 
3965.662, 3125, 
3965.664, 3119, 
3965.666, 3112, 
3965.668, 3104, 
3965.67, 3095, 
3965.672, 3086, 
3965.674, 3076, 
3965.676, 3065, 
3965.678, 3052, 
3965.68, 3037, 
3965.682, 3022, 
3965.684, 3004, 
3965.686, 2986, 
3965.688, 2966, 
3965.69, 2944, 
3965.692, 2921, 
3965.694, 2896, 
3965.696, 2870, 
3965.698, 2843, 
3965.7, 2816, 
3965.702, 2788, 
3965.704, 2761, 
3965.706, 2734, 
3965.708, 2709, 
3965.71, 2685, 
3965.712, 2662, 
3965.714, 2641, 
3965.716, 2624, 
3965.718, 2611, 
3965.72, 2602, 
3965.722, 2597, 
3965.724, 2598, 
3965.726, 2603, 
3965.728, 2610, 
3965.73, 2621, 
3965.732, 2634, 
3965.734, 2655, 
3965.736, 2678, 
3965.738, 2705, 
3965.74, 2730, 
3965.742, 2755, 
3965.744, 2778, 
3965.746, 2801, 
3965.748, 2823, 
3965.75, 2843, 
3965.752, 2862, 
3965.754, 2881, 
3965.756, 2899, 
3965.758, 2913, 
3965.76, 2923, 
3965.762, 2935, 
3965.764, 2944, 
3965.766, 2951, 
3965.768, 2956, 
3965.77, 2959, 
3965.772, 2962, 
3965.774, 2963, 
3965.776, 2964, 
3965.778, 2962, 
3965.78, 2960, 
3965.782, 2958, 
3965.784, 2954, 
3965.786, 2950, 
3965.788, 2944, 
3965.79, 2936, 
3965.792, 2929, 
3965.794, 2921, 
3965.796, 2910, 
3965.798, 2898, 
3965.8, 2885, 
3965.802, 2870, 
3965.804, 2853, 
3965.806, 2834, 
3965.808, 2813, 
3965.81, 2793, 
3965.812, 2770, 
3965.814, 2747, 
3965.816, 2726, 
3965.818, 2704, 
3965.82, 2684, 
3965.822, 2665, 
3965.824, 2646, 
3965.826, 2629, 
3965.828, 2617, 
3965.83, 2603, 
3965.832, 2593, 
3965.834, 2595, 
3965.836, 2592, 
3965.838, 2593, 
3965.84, 2596, 
3965.842, 2606, 
3965.844, 2613, 
3965.846, 2622, 
3965.848, 2631, 
3965.85, 2643, 
3965.852, 2655, 
3965.854, 2666, 
3965.856, 2678, 
3965.858, 2690, 
3965.86, 2698, 
3965.862, 2704, 
3965.864, 2709, 
3965.866, 2710, 
3965.868, 2711, 
3965.87, 2708, 
3965.872, 2701, 
3965.874, 2688, 
3965.876, 2670, 
3965.878, 2650, 
3965.88, 2625, 
3965.882, 2600, 
3965.884, 2572, 
3965.886, 2542, 
3965.888, 2508, 
3965.89, 2469, 
3965.892, 2429, 
3965.894, 2387, 
3965.896, 2343, 
3965.898, 2294, 
3965.9, 2242, 
3965.902, 2189, 
3965.904, 2137, 
3965.906, 2089, 
3965.908, 2048, 
3965.91, 2008, 
3965.912, 1971, 
3965.914, 1935, 
3965.916, 1907, 
3965.918, 1888, 
3965.92, 1876, 
3965.922, 1871, 
3965.924, 1873, 
3965.926, 1882, 
3965.928, 1897, 
3965.93, 1918, 
3965.932, 1945, 
3965.934, 1980, 
3965.936, 2017, 
3965.938, 2055, 
3965.94, 2091, 
3965.942, 2129, 
3965.944, 2168, 
3965.946, 2209, 
3965.948, 2250, 
3965.95, 2290, 
3965.952, 2326, 
3965.954, 2355, 
3965.956, 2383, 
3965.958, 2408, 
3965.96, 2431, 
3965.962, 2458, 
3965.964, 2474, 
3965.966, 2487, 
3965.968, 2500, 
3965.97, 2512, 
3965.972, 2521, 
3965.974, 2530, 
3965.976, 2536, 
3965.978, 2544, 
3965.98, 2544, 
3965.982, 2540, 
3965.984, 2537, 
3965.986, 2533, 
3965.988, 2527, 
3965.99, 2520, 
3965.992, 2509, 
3965.994, 2497, 
3965.996, 2483, 
3965.998, 2465, 
3966.0, 2446, 
3966.002, 2424, 
3966.004, 2400, 
3966.006, 2373, 
3966.008, 2340, 
3966.01, 2301, 
3966.012, 2258, 
3966.014, 2211, 
3966.016, 2153, 
3966.018, 2094, 
3966.02, 2033, 
3966.022, 1965, 
3966.024, 1890, 
3966.026, 1813, 
3966.028, 1732, 
3966.03, 1648, 
3966.032, 1563, 
3966.034, 1484, 
3966.036, 1404, 
3966.038, 1323, 
3966.04, 1249, 
3966.042, 1178, 
3966.044, 1111, 
3966.046, 1055, 
3966.048, 998, 
3966.05, 948, 
3966.052, 905, 
3966.054, 873, 
3966.056, 840, 
3966.058, 813, 
3966.06, 786, 
3966.062, 771, 
3966.064, 759, 
3966.066, 748, 
3966.068, 741, 
3966.07, 739, 
3966.072, 741, 
3966.074, 749, 
3966.076, 761, 
3966.078, 776, 
3966.08, 794, 
3966.082, 819, 
3966.084, 849, 
3966.086, 885, 
3966.088, 932, 
3966.09, 978, 
3966.092, 1037, 
3966.094, 1098, 
3966.096, 1160, 
3966.098, 1240, 
3966.1, 1329, 
3966.102, 1412, 
3966.104, 1500, 
3966.106, 1588, 
3966.108, 1676, 
3966.11, 1761, 
3966.112, 1838, 
3966.114, 1913, 
3966.116, 1982, 
3966.118, 2045, 
3966.12, 2105, 
3966.122, 2156, 
3966.124, 2202, 
3966.126, 2244, 
3966.128, 2279, 
3966.13, 2309, 
3966.132, 2335, 
3966.134, 2360, 
3966.136, 2382, 
3966.138, 2401, 
3966.14, 2417, 
3966.142, 2431, 
3966.144, 2443, 
3966.146, 2454, 
3966.148, 2465, 
3966.15, 2474, 
3966.152, 2483, 
3966.154, 2491, 
3966.156, 2499, 
3966.158, 2506, 
3966.16, 2514, 
3966.162, 2520, 
3966.164, 2525, 
3966.166, 2530, 
3966.168, 2534, 
3966.17, 2538, 
3966.172, 2541, 
3966.174, 2545, 
3966.176, 2547, 
3966.178, 2549, 
3966.18, 2551, 
3966.182, 2552, 
3966.184, 2554, 
3966.186, 2554, 
3966.188, 2555, 
3966.19, 2555, 
3966.192, 2556, 
3966.194, 2556, 
3966.196, 2556, 
3966.198, 2556, 
3966.2, 2556, 
3966.202, 2556, 
3966.204, 2557, 
3966.206, 2557, 
3966.208, 2557, 
3966.21, 2556, 
3966.212, 2556, 
3966.214, 2556, 
3966.216, 2555, 
3966.218, 2555, 
3966.22, 2554, 
3966.222, 2553, 
3966.224, 2552, 
3966.226, 2551, 
3966.228, 2550, 
3966.23, 2549, 
3966.232, 2547, 
3966.234, 2545, 
3966.236, 2543, 
3966.238, 2542, 
3966.24, 2541, 
3966.242, 2540, 
3966.244, 2539, 
3966.246, 2537, 
3966.248, 2536, 
3966.25, 2535, 
3966.252, 2534, 
3966.254, 2532, 
3966.256, 2530, 
3966.258, 2529, 
3966.26, 2528, 
3966.262, 2527, 
3966.264, 2526, 
3966.266, 2524, 
3966.268, 2523, 
3966.27, 2522, 
3966.272, 2521, 
3966.274, 2519, 
3966.276, 2518, 
3966.278, 2516, 
3966.28, 2515, 
3966.282, 2514, 
3966.284, 2511, 
3966.286, 2510, 
3966.288, 2508, 
3966.29, 2506, 
3966.292, 2504, 
3966.294, 2502, 
3966.296, 2500, 
3966.298, 2497, 
3966.3, 2495, 
3966.302, 2493, 
3966.304, 2492, 
3966.306, 2490, 
3966.308, 2488, 
3966.31, 2486, 
3966.312, 2484, 
3966.314, 2483, 
3966.316, 2481, 
3966.318, 2479, 
3966.32, 2477, 
3966.322, 2475, 
3966.324, 2473, 
3966.326, 2471, 
3966.328, 2469, 
3966.33, 2467, 
3966.332, 2465, 
3966.334, 2463, 
3966.336, 2460, 
3966.338, 2459, 
3966.34, 2456, 
3966.342, 2453, 
3966.344, 2451, 
3966.346, 2449, 
3966.348, 2447, 
3966.35, 2445, 
3966.352, 2443, 
3966.354, 2439, 
3966.356, 2438, 
3966.358, 2436, 
3966.36, 2434, 
3966.362, 2432, 
3966.364, 2430, 
3966.366, 2429, 
3966.368, 2427, 
3966.37, 2425, 
3966.372, 2423, 
3966.374, 2420, 
3966.376, 2418, 
3966.378, 2416, 
